# This is the run log of SGP
# Time step used = 0.03125
# Columns are (values in code units):
# [t]    [R]    [V]

0.000000    8.000000    0.000000
0.031250    8.000000    0.000000
0.062500    7.999991    -0.000273
0.093750    7.999974    -0.000546
0.125000    7.999949    -0.000819
0.156250    7.999914    -0.001092
0.187500    7.999872    -0.001365
0.218750    7.999821    -0.001638
0.250000    7.999761    -0.001911
0.281250    7.999693    -0.002184
0.312500    7.999616    -0.002457
0.343750    7.999531    -0.002730
0.375000    7.999437    -0.003003
0.406250    7.999334    -0.003276
0.437500    7.999223    -0.003549
0.468750    7.999104    -0.003822
0.500000    7.998976    -0.004095
0.531250    7.998840    -0.004368
0.562500    7.998695    -0.004642
0.593750    7.998541    -0.004915
0.625000    7.998379    -0.005188
0.656250    7.998209    -0.005461
0.687500    7.998029    -0.005734
0.718750    7.997841    -0.006007
0.750000    7.997645    -0.006280
0.781250    7.997440    -0.006553
0.812500    7.997227    -0.006827
0.843750    7.997005    -0.007100
0.875000    7.996775    -0.007373
0.906250    7.996536    -0.007646
0.937500    7.996289    -0.007919
0.968750    7.996033    -0.008193
1.000000    7.995768    -0.008466
1.031250    7.995495    -0.008739
1.062500    7.995213    -0.009012
1.093750    7.994923    -0.009286
1.125000    7.994624    -0.009559
1.156250    7.994317    -0.009832
1.187500    7.994001    -0.010106
1.218750    7.993677    -0.010379
1.250000    7.993344    -0.010653
1.281250    7.993003    -0.010926
1.312500    7.992653    -0.011200
1.343750    7.992294    -0.011473
1.375000    7.991927    -0.011747
1.406250    7.991551    -0.012020
1.437500    7.991167    -0.012294
1.468750    7.990774    -0.012567
1.500000    7.990373    -0.012841
1.531250    7.989963    -0.013114
1.562500    7.989545    -0.013388
1.593750    7.989118    -0.013662
1.625000    7.988683    -0.013936
1.656250    7.988239    -0.014209
1.687500    7.987786    -0.014483
1.718750    7.987325    -0.014757
1.750000    7.986856    -0.015031
1.781250    7.986377    -0.015305
1.812500    7.985890    -0.015579
1.843750    7.985395    -0.015852
1.875000    7.984891    -0.016126
1.906250    7.984378    -0.016400
1.937500    7.983857    -0.016674
1.968750    7.983327    -0.016949
2.000000    7.982789    -0.017223
2.031250    7.982242    -0.017497
2.062500    7.981687    -0.017771
2.093750    7.981122    -0.018045
2.125000    7.980550    -0.018319
2.156250    7.979969    -0.018594
2.187500    7.979379    -0.018868
2.218750    7.978780    -0.019143
2.250000    7.978173    -0.019417
2.281250    7.977558    -0.019691
2.312500    7.976934    -0.019966
2.343750    7.976302    -0.020240
2.375000    7.975661    -0.020515
2.406250    7.975012    -0.020790
2.437500    7.974354    -0.021064
2.468750    7.973687    -0.021339
2.500000    7.973012    -0.021614
2.531250    7.972328    -0.021889
2.562500    7.971635    -0.022163
2.593750    7.970934    -0.022438
2.625000    7.970224    -0.022713
2.656250    7.969505    -0.022988
2.687500    7.968778    -0.023263
2.718750    7.968042    -0.023539
2.750000    7.967298    -0.023814
2.781250    7.966545    -0.024089
2.812500    7.965784    -0.024364
2.843750    7.965014    -0.024639
2.875000    7.964235    -0.024915
2.906250    7.963448    -0.025190
2.937500    7.962652    -0.025466
2.968750    7.961847    -0.025741
3.000000    7.961034    -0.026017
3.031250    7.960213    -0.026292
3.062500    7.959383    -0.026568
3.093750    7.958544    -0.026844
3.125000    7.957696    -0.027120
3.156250    7.956841    -0.027395
3.187500    7.955976    -0.027671
3.218750    7.955102    -0.027947
3.250000    7.954220    -0.028223
3.281250    7.953330    -0.028499
3.312500    7.952430    -0.028776
3.343750    7.951522    -0.029052
3.375000    7.950606    -0.029328
3.406250    7.949681    -0.029605
3.437500    7.948747    -0.029881
3.468750    7.947805    -0.030157
3.500000    7.946854    -0.030434
3.531250    7.945894    -0.030711
3.562500    7.944925    -0.030987
3.593750    7.943948    -0.031264
3.625000    7.942963    -0.031541
3.656250    7.941968    -0.031818
3.687500    7.940966    -0.032095
3.718750    7.939954    -0.032372
3.750000    7.938933    -0.032649
3.781250    7.937904    -0.032926
3.812500    7.936867    -0.033203
3.843750    7.935821    -0.033480
3.875000    7.934766    -0.033758
3.906250    7.933702    -0.034035
3.937500    7.932630    -0.034313
3.968750    7.931549    -0.034590
4.000000    7.930459    -0.034868
4.031250    7.929361    -0.035146
4.062500    7.928254    -0.035423
4.093750    7.927138    -0.035701
4.125000    7.926013    -0.035979
4.156250    7.924881    -0.036257
4.187500    7.923739    -0.036536
4.218750    7.922588    -0.036814
4.250000    7.921429    -0.037092
4.281250    7.920261    -0.037370
4.312500    7.919085    -0.037649
4.343750    7.917900    -0.037927
4.375000    7.916706    -0.038206
4.406250    7.915503    -0.038485
4.437500    7.914292    -0.038763
4.468750    7.913072    -0.039042
4.500000    7.911843    -0.039321
4.531250    7.910605    -0.039600
4.562500    7.909359    -0.039879
4.593750    7.908104    -0.040159
4.625000    7.906840    -0.040438
4.656250    7.905568    -0.040717
4.687500    7.904287    -0.040997
4.718750    7.902997    -0.041276
4.750000    7.901699    -0.041556
4.781250    7.900391    -0.041836
4.812500    7.899075    -0.042116
4.843750    7.897750    -0.042396
4.875000    7.896417    -0.042676
4.906250    7.895074    -0.042956
4.937500    7.893723    -0.043236
4.968750    7.892363    -0.043516
5.000000    7.890995    -0.043797
5.031250    7.889617    -0.044077
5.062500    7.888231    -0.044358
5.093750    7.886836    -0.044638
5.125000    7.885432    -0.044919
5.156250    7.884020    -0.045200
5.187500    7.882598    -0.045481
5.218750    7.881168    -0.045762
5.250000    7.879729    -0.046043
5.281250    7.878282    -0.046325
5.312500    7.876825    -0.046606
5.343750    7.875360    -0.046888
5.375000    7.873886    -0.047169
5.406250    7.872403    -0.047451
5.437500    7.870912    -0.047733
5.468750    7.869411    -0.048015
5.500000    7.867902    -0.048297
5.531250    7.866384    -0.048579
5.562500    7.864857    -0.048861
5.593750    7.863321    -0.049144
5.625000    7.861776    -0.049426
5.656250    7.860223    -0.049709
5.687500    7.858661    -0.049991
5.718750    7.857090    -0.050274
5.750000    7.855510    -0.050557
5.781250    7.853921    -0.050840
5.812500    7.852324    -0.051123
5.843750    7.850717    -0.051406
5.875000    7.849102    -0.051690
5.906250    7.847477    -0.051973
5.937500    7.845844    -0.052257
5.968750    7.844203    -0.052541
6.000000    7.842552    -0.052824
6.031250    7.840892    -0.053108
6.062500    7.839223    -0.053393
6.093750    7.837546    -0.053677
6.125000    7.835860    -0.053961
6.156250    7.834165    -0.054245
6.187500    7.832460    -0.054530
6.218750    7.830748    -0.054815
6.250000    7.829026    -0.055100
6.281250    7.827295    -0.055384
6.312500    7.825555    -0.055670
6.343750    7.823807    -0.055955
6.375000    7.822049    -0.056240
6.406250    7.820283    -0.056526
6.437500    7.818508    -0.056811
6.468750    7.816723    -0.057097
6.500000    7.814930    -0.057383
6.531250    7.813128    -0.057669
6.562500    7.811317    -0.057955
6.593750    7.809497    -0.058241
6.625000    7.807668    -0.058527
6.656250    7.805830    -0.058814
6.687500    7.803983    -0.059100
6.718750    7.802127    -0.059387
6.750000    7.800262    -0.059674
6.781250    7.798388    -0.059961
6.812500    7.796506    -0.060248
6.843750    7.794614    -0.060536
6.875000    7.792714    -0.060823
6.906250    7.790804    -0.061111
6.937500    7.788885    -0.061398
6.968750    7.786957    -0.061686
7.000000    7.785020    -0.061974
7.031250    7.783075    -0.062262
7.062500    7.781120    -0.062551
7.093750    7.779157    -0.062839
7.125000    7.777184    -0.063128
7.156250    7.775202    -0.063416
7.187500    7.773211    -0.063705
7.218750    7.771212    -0.063994
7.250000    7.769203    -0.064283
7.281250    7.767185    -0.064573
7.312500    7.765158    -0.064862
7.343750    7.763122    -0.065152
7.375000    7.761076    -0.065442
7.406250    7.759022    -0.065731
7.437500    7.756959    -0.066022
7.468750    7.754887    -0.066312
7.500000    7.752805    -0.066602
7.531250    7.750715    -0.066893
7.562500    7.748615    -0.067183
7.593750    7.746507    -0.067474
7.625000    7.744389    -0.067765
7.656250    7.742262    -0.068056
7.687500    7.740127    -0.068348
7.718750    7.737982    -0.068639
7.750000    7.735828    -0.068931
7.781250    7.733665    -0.069223
7.812500    7.731492    -0.069515
7.843750    7.729311    -0.069807
7.875000    7.727120    -0.070099
7.906250    7.724920    -0.070392
7.937500    7.722712    -0.070684
7.968750    7.720493    -0.070977
8.000000    7.718266    -0.071270
8.031250    7.716030    -0.071563
8.062500    7.713784    -0.071856
8.093750    7.711530    -0.072150
8.125000    7.709266    -0.072444
8.156250    7.706993    -0.072737
8.187500    7.704710    -0.073031
8.218750    7.702419    -0.073325
8.250000    7.700119    -0.073620
8.281250    7.697809    -0.073914
8.312500    7.695490    -0.074209
8.343750    7.693161    -0.074504
8.375000    7.690824    -0.074799
8.406250    7.688478    -0.075094
8.437500    7.686121    -0.075390
8.468750    7.683756    -0.075685
8.500000    7.681382    -0.075981
8.531250    7.678998    -0.076277
8.562500    7.676606    -0.076573
8.593750    7.674203    -0.076869
8.625000    7.671792    -0.077166
8.656250    7.669371    -0.077462
8.687500    7.666941    -0.077759
8.718750    7.664502    -0.078056
8.750000    7.662053    -0.078354
8.781250    7.659595    -0.078651
8.812500    7.657128    -0.078949
8.843750    7.654652    -0.079246
8.875000    7.652166    -0.079544
8.906250    7.649671    -0.079843
8.937500    7.647167    -0.080141
8.968750    7.644653    -0.080440
9.000000    7.642130    -0.080738
9.031250    7.639597    -0.081037
9.062500    7.637056    -0.081337
9.093750    7.634505    -0.081636
9.125000    7.631944    -0.081936
9.156250    7.629375    -0.082235
9.187500    7.626795    -0.082535
9.218750    7.624207    -0.082835
9.250000    7.621609    -0.083136
9.281250    7.619001    -0.083436
9.312500    7.616385    -0.083737
9.343750    7.613758    -0.084038
9.375000    7.611123    -0.084339
9.406250    7.608478    -0.084641
9.437500    7.605823    -0.084942
9.468750    7.603159    -0.085244
9.500000    7.600486    -0.085546
9.531250    7.597803    -0.085849
9.562500    7.595111    -0.086151
9.593750    7.592409    -0.086454
9.625000    7.589698    -0.086757
9.656250    7.586977    -0.087060
9.687500    7.584247    -0.087363
9.718750    7.581508    -0.087667
9.750000    7.578759    -0.087970
9.781250    7.576000    -0.088274
9.812500    7.573232    -0.088578
9.843750    7.570455    -0.088883
9.875000    7.567667    -0.089188
9.906250    7.564871    -0.089492
9.937500    7.562065    -0.089798
9.968750    7.559249    -0.090103
10.000000    7.556424    -0.090408
10.031250    7.553589    -0.090714
10.062500    7.550745    -0.091020
10.093750    7.547891    -0.091326
10.125000    7.545027    -0.091633
10.156250    7.542154    -0.091940
10.187500    7.539272    -0.092246
10.218750    7.536379    -0.092554
10.250000    7.533477    -0.092861
10.281250    7.530566    -0.093169
10.312500    7.527645    -0.093477
10.343750    7.524714    -0.093785
10.375000    7.521774    -0.094093
10.406250    7.518824    -0.094402
10.437500    7.515864    -0.094710
10.468750    7.512895    -0.095019
10.500000    7.509916    -0.095329
10.531250    7.506927    -0.095638
10.562500    7.503929    -0.095948
10.593750    7.500921    -0.096258
10.625000    7.497903    -0.096568
10.656250    7.494875    -0.096879
10.687500    7.491838    -0.097190
10.718750    7.488791    -0.097501
10.750000    7.485735    -0.097812
10.781250    7.482668    -0.098124
10.812500    7.479592    -0.098436
10.843750    7.476506    -0.098748
10.875000    7.473411    -0.099060
10.906250    7.470305    -0.099372
10.937500    7.467190    -0.099685
10.968750    7.464066    -0.099998
11.000000    7.460931    -0.100312
11.031250    7.457786    -0.100625
11.062500    7.454632    -0.100939
11.093750    7.451468    -0.101253
11.125000    7.448294    -0.101568
11.156250    7.445110    -0.101883
11.187500    7.441916    -0.102197
11.218750    7.438713    -0.102513
11.250000    7.435499    -0.102828
11.281250    7.432276    -0.103144
11.312500    7.429043    -0.103460
11.343750    7.425800    -0.103776
11.375000    7.422547    -0.104093
11.406250    7.419284    -0.104410
11.437500    7.416011    -0.104727
11.468750    7.412729    -0.105044
11.500000    7.409436    -0.105362
11.531250    7.406134    -0.105680
11.562500    7.402821    -0.105998
11.593750    7.399498    -0.106317
11.625000    7.396166    -0.106636
11.656250    7.392824    -0.106955
11.687500    7.389472    -0.107274
11.718750    7.386110    -0.107594
11.750000    7.382738    -0.107914
11.781250    7.379355    -0.108234
11.812500    7.375963    -0.108555
11.843750    7.372561    -0.108875
11.875000    7.369149    -0.109197
11.906250    7.365726    -0.109518
11.937500    7.362294    -0.109840
11.968750    7.358851    -0.110162
12.000000    7.355399    -0.110484
12.031250    7.351936    -0.110807
12.062500    7.348463    -0.111130
12.093750    7.344980    -0.111453
12.125000    7.341487    -0.111777
12.156250    7.337984    -0.112101
12.187500    7.334471    -0.112425
12.218750    7.330947    -0.112749
12.250000    7.327414    -0.113074
12.281250    7.323870    -0.113399
12.312500    7.320316    -0.113725
12.343750    7.316752    -0.114050
12.375000    7.313178    -0.114376
12.406250    7.309594    -0.114703
12.437500    7.305999    -0.115029
12.468750    7.302394    -0.115356
12.500000    7.298779    -0.115684
12.531250    7.295154    -0.116011
12.562500    7.291518    -0.116339
12.593750    7.287872    -0.116668
12.625000    7.284216    -0.116996
12.656250    7.280550    -0.117325
12.687500    7.276873    -0.117655
12.718750    7.273186    -0.117984
12.750000    7.269489    -0.118314
12.781250    7.265781    -0.118645
12.812500    7.262064    -0.118975
12.843750    7.258335    -0.119306
12.875000    7.254596    -0.119637
12.906250    7.250847    -0.119969
12.937500    7.247088    -0.120301
12.968750    7.243318    -0.120633
13.000000    7.239538    -0.120966
13.031250    7.235747    -0.121299
13.062500    7.231946    -0.121632
13.093750    7.228135    -0.121966
13.125000    7.224313    -0.122300
13.156250    7.220481    -0.122635
13.187500    7.216638    -0.122970
13.218750    7.212785    -0.123305
13.250000    7.208921    -0.123640
13.281250    7.205047    -0.123976
13.312500    7.201162    -0.124312
13.343750    7.197267    -0.124649
13.375000    7.193361    -0.124986
13.406250    7.189445    -0.125323
13.437500    7.185518    -0.125661
13.468750    7.181581    -0.125999
13.500000    7.177632    -0.126337
13.531250    7.173674    -0.126676
13.562500    7.169704    -0.127015
13.593750    7.165725    -0.127355
13.625000    7.161734    -0.127694
13.656250    7.157733    -0.128035
13.687500    7.153721    -0.128375
13.718750    7.149699    -0.128716
13.750000    7.145666    -0.129058
13.781250    7.141622    -0.129400
13.812500    7.137568    -0.129742
13.843750    7.133502    -0.130084
13.875000    7.129426    -0.130427
13.906250    7.125340    -0.130771
13.937500    7.121243    -0.131115
13.968750    7.117135    -0.131459
14.000000    7.113016    -0.131803
14.031250    7.108886    -0.132148
14.062500    7.104746    -0.132493
14.093750    7.100595    -0.132839
14.125000    7.096433    -0.133185
14.156250    7.092260    -0.133532
14.187500    7.088076    -0.133879
14.218750    7.083881    -0.134226
14.250000    7.079676    -0.134574
14.281250    7.075460    -0.134922
14.312500    7.071233    -0.135271
14.343750    7.066995    -0.135620
14.375000    7.062746    -0.135969
14.406250    7.058486    -0.136319
14.437500    7.054214    -0.136669
14.468750    7.049932    -0.137020
14.500000    7.045640    -0.137371
14.531250    7.041336    -0.137723
14.562500    7.037021    -0.138075
14.593750    7.032695    -0.138427
14.625000    7.028358    -0.138780
14.656250    7.024010    -0.139133
14.687500    7.019651    -0.139487
14.718750    7.015281    -0.139841
14.750000    7.010900    -0.140196
14.781250    7.006508    -0.140551
14.812500    7.002105    -0.140906
14.843750    6.997690    -0.141262
14.875000    6.993265    -0.141618
14.906250    6.988828    -0.141975
14.937500    6.984380    -0.142333
14.968750    6.979921    -0.142690
15.000000    6.975451    -0.143048
15.031250    6.970970    -0.143407
15.062500    6.966477    -0.143766
15.093750    6.961973    -0.144126
15.125000    6.957458    -0.144486
15.156250    6.952931    -0.144846
15.187500    6.948394    -0.145207
15.218750    6.943845    -0.145569
15.250000    6.939284    -0.145931
15.281250    6.934713    -0.146293
15.312500    6.930130    -0.146656
15.343750    6.925536    -0.147019
15.375000    6.920930    -0.147383
15.406250    6.916313    -0.147747
15.437500    6.911684    -0.148112
15.468750    6.907044    -0.148477
15.500000    6.902392    -0.148843
15.531250    6.897729    -0.149209
15.562500    6.893055    -0.149576
15.593750    6.888369    -0.149943
15.625000    6.883672    -0.150311
15.656250    6.878963    -0.150679
15.687500    6.874243    -0.151048
15.718750    6.869511    -0.151417
15.750000    6.864768    -0.151787
15.781250    6.860013    -0.152157
15.812500    6.855246    -0.152528
15.843750    6.850468    -0.152899
15.875000    6.845678    -0.153271
15.906250    6.840877    -0.153643
15.937500    6.836064    -0.154016
15.968750    6.831239    -0.154389
16.000000    6.826403    -0.154763
16.031250    6.821555    -0.155138
16.062500    6.816695    -0.155513
16.093750    6.811823    -0.155888
16.125000    6.806940    -0.156264
16.156250    6.802045    -0.156641
16.187500    6.797138    -0.157018
16.218750    6.792220    -0.157395
16.250000    6.787289    -0.157774
16.281250    6.782347    -0.158152
16.312500    6.777392    -0.158532
16.343750    6.772427    -0.158912
16.375000    6.767449    -0.159292
16.406250    6.762459    -0.159673
16.437500    6.757458    -0.160054
16.468750    6.752444    -0.160436
16.500000    6.747419    -0.160819
16.531250    6.742381    -0.161202
16.562500    6.737331    -0.161586
16.593750    6.732270    -0.161970
16.625000    6.727196    -0.162355
16.656250    6.722111    -0.162741
16.687500    6.717013    -0.163127
16.718750    6.711903    -0.163514
16.750000    6.706781    -0.163901
16.781250    6.701647    -0.164289
16.812500    6.696501    -0.164677
16.843750    6.691343    -0.165066
16.875000    6.686172    -0.165456
16.906250    6.680990    -0.165846
16.937500    6.675795    -0.166237
16.968750    6.670588    -0.166628
17.000000    6.665368    -0.167020
17.031250    6.660136    -0.167413
17.062500    6.654892    -0.167806
17.093750    6.649636    -0.168200
17.125000    6.644368    -0.168595
17.156250    6.639087    -0.168990
17.187500    6.633793    -0.169386
17.218750    6.628488    -0.169782
17.250000    6.623169    -0.170179
17.281250    6.617839    -0.170577
17.312500    6.612496    -0.170975
17.343750    6.607141    -0.171374
17.375000    6.601773    -0.171774
17.406250    6.596392    -0.172174
17.437500    6.590999    -0.172575
17.468750    6.585594    -0.172976
17.500000    6.580175    -0.173379
