# This is the run log of SGP
# Time step used = 0.00390625
# Columns are (values in code units):
# [t]    [R]    [V]

0.000000    8.000000    0.000000
0.003906    8.000000    0.000000
0.007813    8.000000    -0.000034
0.011719    8.000000    -0.000068
0.015625    7.999999    -0.000102
0.019531    7.999999    -0.000137
0.023438    7.999998    -0.000171
0.027344    7.999997    -0.000205
0.031250    7.999996    -0.000239
0.035156    7.999995    -0.000273
0.039063    7.999994    -0.000307
0.042969    7.999992    -0.000341
0.046875    7.999991    -0.000375
0.050781    7.999990    -0.000410
0.054688    7.999988    -0.000444
0.058594    7.999986    -0.000478
0.062500    7.999984    -0.000512
0.066406    7.999982    -0.000546
0.070313    7.999979    -0.000580
0.074219    7.999977    -0.000614
0.078125    7.999975    -0.000648
0.082031    7.999972    -0.000683
0.085938    7.999969    -0.000717
0.089844    7.999966    -0.000751
0.093750    7.999963    -0.000785
0.097656    7.999960    -0.000819
0.101563    7.999957    -0.000853
0.105469    7.999953    -0.000887
0.109375    7.999949    -0.000921
0.113281    7.999946    -0.000956
0.117188    7.999942    -0.000990
0.121094    7.999938    -0.001024
0.125000    7.999934    -0.001058
0.128906    7.999929    -0.001092
0.132813    7.999925    -0.001126
0.136719    7.999920    -0.001160
0.140625    7.999916    -0.001194
0.144531    7.999911    -0.001229
0.148438    7.999906    -0.001263
0.152344    7.999901    -0.001297
0.156250    7.999896    -0.001331
0.160156    7.999890    -0.001365
0.164063    7.999885    -0.001399
0.167969    7.999879    -0.001433
0.171875    7.999874    -0.001467
0.175781    7.999868    -0.001502
0.179688    7.999862    -0.001536
0.183594    7.999856    -0.001570
0.187500    7.999849    -0.001604
0.191406    7.999843    -0.001638
0.195313    7.999836    -0.001672
0.199219    7.999830    -0.001706
0.203125    7.999823    -0.001740
0.207031    7.999816    -0.001775
0.210938    7.999809    -0.001809
0.214844    7.999802    -0.001843
0.218750    7.999794    -0.001877
0.222656    7.999787    -0.001911
0.226563    7.999779    -0.001945
0.230469    7.999772    -0.001979
0.234375    7.999764    -0.002013
0.238281    7.999756    -0.002048
0.242188    7.999748    -0.002082
0.246094    7.999740    -0.002116
0.250000    7.999731    -0.002150
0.253906    7.999722    -0.002184
0.257813    7.999714    -0.002218
0.261719    7.999705    -0.002252
0.265625    7.999696    -0.002286
0.269531    7.999687    -0.002321
0.273438    7.999678    -0.002355
0.277344    7.999669    -0.002389
0.281250    7.999659    -0.002423
0.285156    7.999650    -0.002457
0.289063    7.999640    -0.002491
0.292969    7.999630    -0.002525
0.296875    7.999620    -0.002560
0.300781    7.999610    -0.002594
0.304688    7.999599    -0.002628
0.308594    7.999589    -0.002662
0.312500    7.999578    -0.002696
0.316406    7.999568    -0.002730
0.320313    7.999557    -0.002764
0.324219    7.999546    -0.002798
0.328125    7.999535    -0.002833
0.332031    7.999524    -0.002867
0.335938    7.999513    -0.002901
0.339844    7.999501    -0.002935
0.343750    7.999490    -0.002969
0.347656    7.999478    -0.003003
0.351563    7.999466    -0.003037
0.355469    7.999454    -0.003071
0.359375    7.999442    -0.003106
0.363281    7.999430    -0.003140
0.367188    7.999417    -0.003174
0.371094    7.999405    -0.003208
0.375000    7.999392    -0.003242
0.378906    7.999379    -0.003276
0.382813    7.999366    -0.003310
0.386719    7.999353    -0.003345
0.390625    7.999340    -0.003379
0.394531    7.999327    -0.003413
0.398438    7.999313    -0.003447
0.402344    7.999300    -0.003481
0.406250    7.999286    -0.003515
0.410156    7.999272    -0.003549
0.414063    7.999258    -0.003583
0.417969    7.999244    -0.003618
0.421875    7.999229    -0.003652
0.425781    7.999215    -0.003686
0.429688    7.999201    -0.003720
0.433594    7.999186    -0.003754
0.437500    7.999171    -0.003788
0.441406    7.999156    -0.003822
0.445313    7.999141    -0.003857
0.449219    7.999126    -0.003891
0.453125    7.999111    -0.003925
0.457031    7.999095    -0.003959
0.460938    7.999080    -0.003993
0.464844    7.999064    -0.004027
0.468750    7.999048    -0.004061
0.472656    7.999032    -0.004095
0.476563    7.999016    -0.004130
0.480469    7.999000    -0.004164
0.484375    7.998983    -0.004198
0.488281    7.998967    -0.004232
0.492188    7.998950    -0.004266
0.496094    7.998933    -0.004300
0.500000    7.998916    -0.004334
0.503906    7.998899    -0.004369
0.507813    7.998882    -0.004403
0.511719    7.998865    -0.004437
0.515625    7.998847    -0.004471
0.519531    7.998829    -0.004505
0.523438    7.998812    -0.004539
0.527344    7.998794    -0.004573
0.531250    7.998776    -0.004607
0.535156    7.998758    -0.004642
0.539063    7.998740    -0.004676
0.542969    7.998721    -0.004710
0.546875    7.998703    -0.004744
0.550781    7.998684    -0.004778
0.554688    7.998665    -0.004812
0.558594    7.998646    -0.004846
0.562500    7.998627    -0.004881
0.566406    7.998608    -0.004915
0.570313    7.998589    -0.004949
0.574219    7.998569    -0.004983
0.578125    7.998549    -0.005017
0.582031    7.998530    -0.005051
0.585938    7.998510    -0.005085
0.589844    7.998490    -0.005120
0.593750    7.998470    -0.005154
0.597656    7.998450    -0.005188
0.601563    7.998429    -0.005222
0.605469    7.998409    -0.005256
0.609375    7.998388    -0.005290
0.613281    7.998367    -0.005324
0.617188    7.998346    -0.005358
0.621094    7.998325    -0.005393
0.625000    7.998304    -0.005427
0.628906    7.998283    -0.005461
0.632813    7.998261    -0.005495
0.636719    7.998240    -0.005529
0.640625    7.998218    -0.005563
0.644531    7.998196    -0.005597
0.648438    7.998174    -0.005632
0.652344    7.998152    -0.005666
0.656250    7.998130    -0.005700
0.660156    7.998107    -0.005734
0.664063    7.998085    -0.005768
0.667969    7.998062    -0.005802
0.671875    7.998039    -0.005836
0.675781    7.998016    -0.005871
0.679688    7.997993    -0.005905
0.683594    7.997970    -0.005939
0.687500    7.997947    -0.005973
0.691406    7.997923    -0.006007
0.695313    7.997900    -0.006041
0.699219    7.997876    -0.006075
0.703125    7.997852    -0.006110
0.707031    7.997828    -0.006144
0.710938    7.997804    -0.006178
0.714844    7.997780    -0.006212
0.718750    7.997756    -0.006246
0.722656    7.997731    -0.006280
0.726563    7.997706    -0.006314
0.730469    7.997682    -0.006349
0.734375    7.997657    -0.006383
0.738281    7.997632    -0.006417
0.742188    7.997606    -0.006451
0.746094    7.997581    -0.006485
0.750000    7.997556    -0.006519
0.753906    7.997530    -0.006554
0.757813    7.997504    -0.006588
0.761719    7.997478    -0.006622
0.765625    7.997452    -0.006656
0.769531    7.997426    -0.006690
0.773438    7.997400    -0.006724
0.777344    7.997374    -0.006758
0.781250    7.997347    -0.006793
0.785156    7.997320    -0.006827
0.789063    7.997293    -0.006861
0.792969    7.997267    -0.006895
0.796875    7.997240    -0.006929
0.800781    7.997212    -0.006963
0.804688    7.997185    -0.006997
0.808594    7.997158    -0.007032
0.812500    7.997130    -0.007066
0.816406    7.997102    -0.007100
0.820313    7.997075    -0.007134
0.824219    7.997046    -0.007168
0.828125    7.997018    -0.007202
0.832031    7.996990    -0.007236
0.835938    7.996962    -0.007271
0.839844    7.996933    -0.007305
0.843750    7.996904    -0.007339
0.847656    7.996876    -0.007373
0.851563    7.996847    -0.007407
0.855469    7.996818    -0.007441
0.859375    7.996789    -0.007476
0.863281    7.996759    -0.007510
0.867188    7.996729    -0.007544
0.871094    7.996700    -0.007578
0.875000    7.996670    -0.007612
0.878906    7.996640    -0.007646
0.882813    7.996610    -0.007680
0.886719    7.996580    -0.007715
0.890625    7.996550    -0.007749
0.894531    7.996520    -0.007783
0.898438    7.996489    -0.007817
0.902344    7.996459    -0.007851
0.906250    7.996428    -0.007885
0.910156    7.996397    -0.007920
0.914063    7.996366    -0.007954
0.917969    7.996335    -0.007988
0.921875    7.996303    -0.008022
0.925781    7.996272    -0.008056
0.929688    7.996240    -0.008090
0.933594    7.996208    -0.008125
0.937500    7.996176    -0.008159
0.941406    7.996144    -0.008193
0.945313    7.996112    -0.008227
0.949219    7.996080    -0.008261
0.953125    7.996047    -0.008295
0.957031    7.996015    -0.008329
0.960938    7.995982    -0.008364
0.964844    7.995949    -0.008398
0.968750    7.995916    -0.008432
0.972656    7.995883    -0.008466
0.976563    7.995850    -0.008500
0.980469    7.995817    -0.008534
0.984375    7.995783    -0.008569
0.988281    7.995750    -0.008603
0.992188    7.995716    -0.008637
0.996094    7.995682    -0.008671
1.000000    7.995648    -0.008705
1.003906    7.995614    -0.008739
1.007813    7.995580    -0.008774
1.011719    7.995545    -0.008808
1.015625    7.995511    -0.008842
1.019531    7.995476    -0.008876
1.023438    7.995441    -0.008910
1.027344    7.995407    -0.008944
1.031250    7.995371    -0.008979
1.035156    7.995336    -0.009013
1.039063    7.995301    -0.009047
1.042969    7.995265    -0.009081
1.046875    7.995230    -0.009115
1.050781    7.995194    -0.009149
1.054688    7.995158    -0.009184
1.058594    7.995122    -0.009218
1.062500    7.995086    -0.009252
1.066406    7.995049    -0.009286
1.070313    7.995013    -0.009320
1.074219    7.994977    -0.009354
1.078125    7.994940    -0.009389
1.082031    7.994903    -0.009423
1.085938    7.994866    -0.009457
1.089844    7.994829    -0.009491
1.093750    7.994792    -0.009525
1.097656    7.994755    -0.009559
1.101563    7.994717    -0.009594
1.105469    7.994679    -0.009628
1.109375    7.994642    -0.009662
1.113281    7.994604    -0.009696
1.117188    7.994566    -0.009730
1.121094    7.994528    -0.009764
1.125000    7.994490    -0.009799
1.128906    7.994451    -0.009833
1.132813    7.994412    -0.009867
1.136719    7.994374    -0.009901
1.140625    7.994335    -0.009935
1.144531    7.994296    -0.009969
1.148438    7.994257    -0.010004
1.152344    7.994218    -0.010038
1.156250    7.994178    -0.010072
1.160156    7.994139    -0.010106
1.164063    7.994099    -0.010140
1.167969    7.994060    -0.010175
1.171875    7.994020    -0.010209
1.175781    7.993979    -0.010243
1.179688    7.993939    -0.010277
1.183594    7.993899    -0.010311
1.187500    7.993859    -0.010345
1.191406    7.993818    -0.010380
1.195313    7.993778    -0.010414
1.199219    7.993737    -0.010448
1.203125    7.993696    -0.010482
1.207031    7.993655    -0.010516
1.210938    7.993614    -0.010550
1.214844    7.993572    -0.010585
1.218750    7.993531    -0.010619
1.222656    7.993489    -0.010653
1.226563    7.993447    -0.010687
1.230469    7.993405    -0.010721
1.234375    7.993363    -0.010756
1.238281    7.993321    -0.010790
1.242188    7.993279    -0.010824
1.246094    7.993237    -0.010858
1.250000    7.993194    -0.010892
1.253906    7.993151    -0.010926
1.257813    7.993108    -0.010961
1.261719    7.993065    -0.010995
1.265625    7.993022    -0.011029
1.269531    7.992979    -0.011063
1.273438    7.992936    -0.011097
1.277344    7.992892    -0.011132
1.281250    7.992849    -0.011166
1.285156    7.992805    -0.011200
1.289063    7.992761    -0.011234
1.292969    7.992717    -0.011268
1.296875    7.992673    -0.011303
1.300781    7.992629    -0.011337
1.304688    7.992584    -0.011371
1.308594    7.992540    -0.011405
1.312500    7.992495    -0.011439
1.316406    7.992450    -0.011473
1.320313    7.992405    -0.011508
1.324219    7.992360    -0.011542
1.328125    7.992315    -0.011576
1.332031    7.992270    -0.011610
1.335938    7.992224    -0.011644
1.339844    7.992178    -0.011679
1.343750    7.992133    -0.011713
1.347656    7.992087    -0.011747
1.351563    7.992041    -0.011781
1.355469    7.991994    -0.011815
1.359375    7.991948    -0.011850
1.363281    7.991902    -0.011884
1.367188    7.991855    -0.011918
1.371094    7.991808    -0.011952
1.375000    7.991762    -0.011986
1.378906    7.991715    -0.012021
1.382813    7.991668    -0.012055
1.386719    7.991621    -0.012089
1.390625    7.991573    -0.012123
1.394531    7.991526    -0.012157
1.398438    7.991478    -0.012192
1.402344    7.991430    -0.012226
1.406250    7.991383    -0.012260
1.410156    7.991334    -0.012294
1.414063    7.991286    -0.012328
1.417969    7.991238    -0.012363
1.421875    7.991189    -0.012397
1.425781    7.991141    -0.012431
1.429688    7.991092    -0.012465
1.433594    7.991044    -0.012499
1.437500    7.990994    -0.012534
1.441406    7.990945    -0.012568
1.445313    7.990896    -0.012602
1.449219    7.990847    -0.012636
1.453125    7.990797    -0.012670
1.457031    7.990747    -0.012705
1.460938    7.990698    -0.012739
1.464844    7.990648    -0.012773
1.468750    7.990598    -0.012807
1.472656    7.990548    -0.012841
1.476563    7.990498    -0.012876
1.480469    7.990447    -0.012910
1.484375    7.990396    -0.012944
1.488281    7.990346    -0.012978
1.492188    7.990295    -0.013012
1.496094    7.990244    -0.013047
1.500000    7.990193    -0.013081
1.503906    7.990142    -0.013115
1.507813    7.990090    -0.013149
1.511719    7.990039    -0.013183
1.515625    7.989987    -0.013218
1.519531    7.989935    -0.013252
1.523438    7.989883    -0.013286
1.527344    7.989831    -0.013320
1.531250    7.989779    -0.013355
1.535156    7.989727    -0.013389
1.539063    7.989675    -0.013423
1.542969    7.989622    -0.013457
1.546875    7.989569    -0.013491
1.550781    7.989516    -0.013526
1.554688    7.989463    -0.013560
1.558594    7.989410    -0.013594
1.562500    7.989357    -0.013628
1.566406    7.989304    -0.013662
1.570313    7.989250    -0.013697
1.574219    7.989197    -0.013731
1.578125    7.989143    -0.013765
1.582031    7.989089    -0.013799
1.585938    7.989035    -0.013834
1.589844    7.988981    -0.013868
1.593750    7.988926    -0.013902
1.597656    7.988872    -0.013936
1.601563    7.988818    -0.013970
1.605469    7.988763    -0.014005
1.609375    7.988708    -0.014039
1.613281    7.988653    -0.014073
1.617188    7.988598    -0.014107
1.621094    7.988543    -0.014142
1.625000    7.988487    -0.014176
1.628906    7.988432    -0.014210
1.632813    7.988376    -0.014244
1.636719    7.988320    -0.014278
1.640625    7.988265    -0.014313
1.644531    7.988208    -0.014347
1.648438    7.988152    -0.014381
1.652344    7.988096    -0.014415
1.656250    7.988039    -0.014450
1.660156    7.987983    -0.014484
1.664063    7.987926    -0.014518
1.667969    7.987869    -0.014552
1.671875    7.987813    -0.014586
1.675781    7.987755    -0.014621
1.679688    7.987698    -0.014655
1.683594    7.987641    -0.014689
1.687500    7.987583    -0.014723
1.691406    7.987525    -0.014758
1.695313    7.987468    -0.014792
1.699219    7.987410    -0.014826
1.703125    7.987352    -0.014860
1.707031    7.987294    -0.014895
1.710938    7.987236    -0.014929
1.714844    7.987177    -0.014963
1.718750    7.987118    -0.014997
1.722656    7.987060    -0.015031
1.726563    7.987001    -0.015066
1.730469    7.986942    -0.015100
1.734375    7.986883    -0.015134
1.738281    7.986824    -0.015168
1.742188    7.986764    -0.015203
1.746094    7.986704    -0.015237
1.750000    7.986645    -0.015271
1.753906    7.986585    -0.015305
1.757813    7.986525    -0.015340
1.761719    7.986465    -0.015374
1.765625    7.986405    -0.015408
1.769531    7.986344    -0.015442
1.773438    7.986284    -0.015477
1.777344    7.986223    -0.015511
1.781250    7.986163    -0.015545
1.785156    7.986102    -0.015579
1.789063    7.986041    -0.015614
1.792969    7.985980    -0.015648
1.796875    7.985919    -0.015682
1.800781    7.985857    -0.015716
1.804688    7.985795    -0.015751
1.808594    7.985734    -0.015785
1.812500    7.985672    -0.015819
1.816406    7.985610    -0.015853
1.820313    7.985548    -0.015888
1.824219    7.985486    -0.015922
1.828125    7.985424    -0.015956
1.832031    7.985361    -0.015990
1.835938    7.985299    -0.016025
1.839844    7.985236    -0.016059
1.843750    7.985173    -0.016093
1.847656    7.985110    -0.016127
1.851563    7.985047    -0.016162
1.855469    7.984983    -0.016196
1.859375    7.984920    -0.016230
1.863281    7.984857    -0.016264
1.867188    7.984793    -0.016299
1.871094    7.984729    -0.016333
1.875000    7.984665    -0.016367
1.878906    7.984601    -0.016401
1.882813    7.984537    -0.016436
1.886719    7.984472    -0.016470
1.890625    7.984408    -0.016504
1.894531    7.984344    -0.016538
1.898438    7.984279    -0.016573
1.902344    7.984214    -0.016607
1.906250    7.984149    -0.016641
1.910156    7.984084    -0.016675
1.914063    7.984018    -0.016710
1.917969    7.983953    -0.016744
1.921875    7.983888    -0.016778
1.925781    7.983822    -0.016812
1.929688    7.983756    -0.016847
1.933594    7.983690    -0.016881
1.937500    7.983624    -0.016915
1.941406    7.983558    -0.016950
1.945313    7.983491    -0.016984
1.949219    7.983425    -0.017018
1.953125    7.983358    -0.017052
1.957031    7.983292    -0.017087
1.960938    7.983225    -0.017121
1.964844    7.983158    -0.017155
1.968750    7.983090    -0.017189
1.972656    7.983023    -0.017224
1.976563    7.982956    -0.017258
1.980469    7.982888    -0.017292
1.984375    7.982821    -0.017326
1.988281    7.982753    -0.017361
1.992188    7.982685    -0.017395
1.996094    7.982616    -0.017429
2.000000    7.982548    -0.017464
2.003906    7.982480    -0.017498
2.007813    7.982411    -0.017532
2.011719    7.982343    -0.017566
2.015625    7.982274    -0.017601
2.019531    7.982205    -0.017635
2.023438    7.982136    -0.017669
2.027344    7.982067    -0.017704
2.031250    7.981998    -0.017738
2.035156    7.981928    -0.017772
2.039063    7.981859    -0.017806
2.042969    7.981789    -0.017841
2.046875    7.981719    -0.017875
2.050781    7.981649    -0.017909
2.054688    7.981579    -0.017943
2.058594    7.981509    -0.017978
2.062500    7.981439    -0.018012
2.066406    7.981368    -0.018046
2.070313    7.981297    -0.018081
2.074219    7.981227    -0.018115
2.078125    7.981156    -0.018149
2.082031    7.981085    -0.018183
2.085938    7.981014    -0.018218
2.089844    7.980942    -0.018252
2.093750    7.980871    -0.018286
2.097656    7.980799    -0.018321
2.101563    7.980728    -0.018355
2.105469    7.980656    -0.018389
2.109375    7.980584    -0.018423
2.113281    7.980512    -0.018458
2.117188    7.980440    -0.018492
2.121094    7.980367    -0.018526
2.125000    7.980295    -0.018561
2.128906    7.980222    -0.018595
2.132813    7.980149    -0.018629
2.136719    7.980076    -0.018664
2.140625    7.980003    -0.018698
2.144531    7.979930    -0.018732
2.148438    7.979857    -0.018766
2.152344    7.979784    -0.018801
2.156250    7.979710    -0.018835
2.160156    7.979636    -0.018869
2.164063    7.979562    -0.018904
2.167969    7.979488    -0.018938
2.171875    7.979414    -0.018972
2.175781    7.979340    -0.019007
2.179688    7.979266    -0.019041
2.183594    7.979191    -0.019075
2.187500    7.979116    -0.019109
2.191406    7.979042    -0.019144
2.195313    7.978967    -0.019178
2.199219    7.978892    -0.019212
2.203125    7.978817    -0.019247
2.207031    7.978741    -0.019281
2.210938    7.978666    -0.019315
