# This is the run log of SGP
# Time step used = 0.0625
# Columns are (values in code units):
# [t]    [R]    [V]

0.000000    8.000000    0.000000
0.062500    8.000000    0.000000
0.125000    7.999966    -0.000546
0.187500    7.999897    -0.001092
0.250000    7.999795    -0.001638
0.312500    7.999659    -0.002184
0.375000    7.999488    -0.002730
0.437500    7.999283    -0.003276
0.500000    7.999044    -0.003822
0.562500    7.998771    -0.004368
0.625000    7.998464    -0.004915
0.687500    7.998123    -0.005461
0.750000    7.997747    -0.006007
0.812500    7.997338    -0.006553
0.875000    7.996894    -0.007100
0.937500    7.996416    -0.007646
1.000000    7.995904    -0.008192
1.062500    7.995358    -0.008739
1.125000    7.994778    -0.009285
1.187500    7.994163    -0.009832
1.250000    7.993515    -0.010379
1.312500    7.992832    -0.010926
1.375000    7.992115    -0.011473
1.437500    7.991364    -0.012020
1.500000    7.990578    -0.012567
1.562500    7.989758    -0.013114
1.625000    7.988904    -0.013661
1.687500    7.988017    -0.014209
1.750000    7.987094    -0.014756
1.812500    7.986138    -0.015304
1.875000    7.985147    -0.015851
1.937500    7.984122    -0.016399
2.000000    7.983063    -0.016947
2.062500    7.981969    -0.017496
2.125000    7.980842    -0.018044
2.187500    7.979680    -0.018592
2.250000    7.978483    -0.019141
2.312500    7.977252    -0.019690
2.375000    7.975987    -0.020239
2.437500    7.974688    -0.020788
2.500000    7.973354    -0.021337
2.562500    7.971986    -0.021887
2.625000    7.970584    -0.022436
2.687500    7.969147    -0.022986
2.750000    7.967676    -0.023536
2.812500    7.966171    -0.024087
2.875000    7.964631    -0.024637
2.937500    7.963057    -0.025188
3.000000    7.961448    -0.025739
3.062500    7.959805    -0.026290
3.125000    7.958127    -0.026841
3.187500    7.956416    -0.027393
3.250000    7.954669    -0.027944
3.312500    7.952888    -0.028496
3.375000    7.951073    -0.029049
3.437500    7.949223    -0.029601
3.500000    7.947338    -0.030154
3.562500    7.945419    -0.030707
3.625000    7.943465    -0.031260
3.687500    7.941477    -0.031814
3.750000    7.939454    -0.032368
3.812500    7.937397    -0.032922
3.875000    7.935304    -0.033476
3.937500    7.933177    -0.034031
4.000000    7.931016    -0.034586
4.062500    7.928820    -0.035141
4.125000    7.926589    -0.035696
4.187500    7.924323    -0.036252
4.250000    7.922022    -0.036808
4.312500    7.919686    -0.037365
4.375000    7.917316    -0.037922
4.437500    7.914911    -0.038479
4.500000    7.912471    -0.039036
4.562500    7.909997    -0.039594
4.625000    7.907487    -0.040152
4.687500    7.904943    -0.040711
4.750000    7.902363    -0.041270
4.812500    7.899749    -0.041829
4.875000    7.897099    -0.042389
4.937500    7.894415    -0.042949
5.000000    7.891696    -0.043509
5.062500    7.888942    -0.044070
5.125000    7.886152    -0.044631
5.187500    7.883328    -0.045192
5.250000    7.880468    -0.045754
5.312500    7.877573    -0.046316
5.375000    7.874643    -0.046879
5.437500    7.871678    -0.047442
5.500000    7.868678    -0.048006
5.562500    7.865643    -0.048570
5.625000    7.862572    -0.049134
5.687500    7.859466    -0.049699
5.750000    7.856324    -0.050264
5.812500    7.853148    -0.050830
5.875000    7.849935    -0.051396
5.937500    7.846687    -0.051963
6.000000    7.843404    -0.052530
6.062500    7.840086    -0.053097
6.125000    7.836731    -0.053665
6.187500    7.833342    -0.054234
6.250000    7.829916    -0.054803
6.312500    7.826456    -0.055372
6.375000    7.822959    -0.055942
6.437500    7.819427    -0.056513
6.500000    7.815860    -0.057084
6.562500    7.812256    -0.057655
6.625000    7.808617    -0.058228
6.687500    7.804942    -0.058800
6.750000    7.801231    -0.059373
6.812500    7.797485    -0.059947
6.875000    7.793702    -0.060521
6.937500    7.789884    -0.061096
7.000000    7.786029    -0.061671
7.062500    7.782139    -0.062247
7.125000    7.778213    -0.062823
7.187500    7.774250    -0.063400
7.250000    7.770251    -0.063978
7.312500    7.766216    -0.064556
7.375000    7.762146    -0.065135
7.437500    7.758039    -0.065714
7.500000    7.753895    -0.066294
7.562500    7.749716    -0.066875
7.625000    7.745500    -0.067456
7.687500    7.741247    -0.068038
7.750000    7.736959    -0.068621
7.812500    7.732633    -0.069204
7.875000    7.728271    -0.069787
7.937500    7.723873    -0.070372
8.000000    7.719439    -0.070957
8.062500    7.714967    -0.071543
8.125000    7.710459    -0.072129
8.187500    7.705914    -0.072716
8.250000    7.701333    -0.073304
8.312500    7.696715    -0.073892
8.375000    7.692060    -0.074482
8.437500    7.687368    -0.075072
8.500000    7.682639    -0.075662
8.562500    7.677873    -0.076253
8.625000    7.673070    -0.076846
8.687500    7.668231    -0.077438
8.750000    7.663353    -0.078032
8.812500    7.658439    -0.078626
8.875000    7.653488    -0.079221
8.937500    7.648499    -0.079817
9.000000    7.643473    -0.080414
9.062500    7.638410    -0.081011
9.125000    7.633309    -0.081609
9.187500    7.628171    -0.082208
9.250000    7.622996    -0.082808
9.312500    7.617783    -0.083408
9.375000    7.612533    -0.084010
9.437500    7.607244    -0.084612
9.500000    7.601919    -0.085215
9.562500    7.596555    -0.085819
9.625000    7.591154    -0.086423
9.687500    7.585714    -0.087029
9.750000    7.580237    -0.087635
9.812500    7.574722    -0.088243
9.875000    7.569169    -0.088851
9.937500    7.563577    -0.089460
10.000000    7.557948    -0.090070
10.062500    7.552280    -0.090681
10.125000    7.546574    -0.091292
10.187500    7.540830    -0.091905
10.250000    7.535048    -0.092519
10.312500    7.529227    -0.093133
10.375000    7.523367    -0.093749
10.437500    7.517469    -0.094365
10.500000    7.511533    -0.094983
10.562500    7.505558    -0.095601
10.625000    7.499544    -0.096220
10.687500    7.493491    -0.096841
10.750000    7.487400    -0.097462
10.812500    7.481269    -0.098084
10.875000    7.475100    -0.098708
10.937500    7.468892    -0.099332
11.000000    7.462644    -0.099957
11.062500    7.456357    -0.100584
11.125000    7.450032    -0.101211
11.187500    7.443667    -0.101840
11.250000    7.437263    -0.102469
11.312500    7.430819    -0.103100
11.375000    7.424335    -0.103732
11.437500    7.417813    -0.104365
11.500000    7.411251    -0.104999
11.562500    7.404648    -0.105634
11.625000    7.398006    -0.106270
11.687500    7.391325    -0.106907
11.750000    7.384603    -0.107546
11.812500    7.377841    -0.108185
11.875000    7.371040    -0.108826
11.937500    7.364198    -0.109468
12.000000    7.357316    -0.110111
12.062500    7.350394    -0.110756
12.125000    7.343431    -0.111401
12.187500    7.336428    -0.112048
12.250000    7.329385    -0.112696
12.312500    7.322301    -0.113345
12.375000    7.315176    -0.113996
12.437500    7.308011    -0.114648
12.500000    7.300804    -0.115301
12.562500    7.293557    -0.115955
12.625000    7.286269    -0.116611
12.687500    7.278940    -0.117268
12.750000    7.271570    -0.117926
12.812500    7.264158    -0.118585
12.875000    7.256705    -0.119246
12.937500    7.249211    -0.119908
13.000000    7.241675    -0.120572
13.062500    7.234097    -0.121237
13.125000    7.226479    -0.121903
13.187500    7.218818    -0.122571
13.250000    7.211115    -0.123240
13.312500    7.203371    -0.123911
13.375000    7.195585    -0.124583
13.437500    7.187756    -0.125256
13.500000    7.179885    -0.125931
13.562500    7.171972    -0.126608
13.625000    7.164017    -0.127285
13.687500    7.156019    -0.127965
13.750000    7.147978    -0.128646
13.812500    7.139895    -0.129328
13.875000    7.131770    -0.130012
13.937500    7.123601    -0.130698
14.000000    7.115389    -0.131385
14.062500    7.107135    -0.132073
14.125000    7.098837    -0.132763
14.187500    7.090496    -0.133455
14.250000    7.082112    -0.134149
14.312500    7.073684    -0.134844
14.375000    7.065213    -0.135541
14.437500    7.056698    -0.136239
14.500000    7.048139    -0.136939
14.562500    7.039536    -0.137641
14.625000    7.030890    -0.138344
14.687500    7.022200    -0.139049
14.750000    7.013465    -0.139756
14.812500    7.004686    -0.140465
14.875000    6.995862    -0.141175
14.937500    6.986995    -0.141888
15.000000    6.978082    -0.142602
15.062500    6.969125    -0.143317
15.125000    6.960123    -0.144035
15.187500    6.951076    -0.144755
15.250000    6.941983    -0.145476
15.312500    6.932846    -0.146199
15.375000    6.923663    -0.146924
15.437500    6.914434    -0.147651
15.500000    6.905160    -0.148380
15.562500    6.895841    -0.149111
15.625000    6.886476    -0.149844
15.687500    6.877065    -0.150579
15.750000    6.867608    -0.151316
15.812500    6.858104    -0.152055
15.875000    6.848555    -0.152796
15.937500    6.838958    -0.153539
16.000000    6.829316    -0.154284
16.062500    6.819626    -0.155031
16.125000    6.809890    -0.155780
16.187500    6.800107    -0.156531
16.250000    6.790277    -0.157285
16.312500    6.780399    -0.158041
16.375000    6.770474    -0.158799
16.437500    6.760501    -0.159559
16.500000    6.750481    -0.160321
16.562500    6.740413    -0.161086
16.625000    6.730298    -0.161853
16.687500    6.720134    -0.162622
16.750000    6.709922    -0.163393
16.812500    6.699661    -0.164167
16.875000    6.689353    -0.164943
16.937500    6.678995    -0.165722
17.000000    6.668589    -0.166503
17.062500    6.658133    -0.167286
17.125000    6.647628    -0.168072
17.187500    6.637074    -0.168860
17.250000    6.626472    -0.169651
17.312500    6.615819    -0.170444
17.375000    6.605116    -0.171240
17.437500    6.594364    -0.172038
17.500000    6.583562    -0.172839
17.562500    6.572709    -0.173643
17.625000    6.561806    -0.174449
17.687500    6.550853    -0.175258
17.750000    6.539848    -0.176070
17.812500    6.528793    -0.176884
17.875000    6.517686    -0.177701
17.937500    6.506529    -0.178521
18.000000    6.495320    -0.179343
18.062500    6.484059    -0.180169
18.125000    6.472747    -0.180997
18.187500    6.461382    -0.181828
18.250000    6.449966    -0.182662
18.312500    6.438497    -0.183499
18.375000    6.426976    -0.184339
18.437500    6.415402    -0.185182
18.500000    6.403775    -0.186028
18.562500    6.392096    -0.186877
18.625000    6.380363    -0.187730
18.687500    6.368576    -0.188585
18.750000    6.356736    -0.189443
18.812500    6.344841    -0.190305
18.875000    6.332893    -0.191170
18.937500    6.320891    -0.192038
19.000000    6.308834    -0.192909
19.062500    6.296722    -0.193784
19.125000    6.284556    -0.194662
19.187500    6.272335    -0.195543
19.250000    6.260058    -0.196428
19.312500    6.247725    -0.197316
19.375000    6.235338    -0.198208
19.437500    6.222894    -0.199103
19.500000    6.210393    -0.200002
19.562500    6.197837    -0.200904
19.625000    6.185224    -0.201810
19.687500    6.172554    -0.202720
19.750000    6.159826    -0.203633
19.812500    6.147042    -0.204551
19.875000    6.134200    -0.205472
19.937500    6.121300    -0.206396
20.000000    6.108342    -0.207325
20.062500    6.095325    -0.208258
20.125000    6.082251    -0.209194
20.187500    6.069117    -0.210135
20.250000    6.055924    -0.211079
20.312500    6.042673    -0.212028
20.375000    6.029361    -0.212981
20.437500    6.015990    -0.213938
20.500000    6.002559    -0.214899
20.562500    5.989068    -0.215865
20.625000    5.975515    -0.216835
20.687500    5.961902    -0.217809
20.750000    5.948228    -0.218788
20.812500    5.934492    -0.219771
20.875000    5.920695    -0.220758
20.937500    5.906836    -0.221751
21.000000    5.892914    -0.222747
21.062500    5.878930    -0.223749
21.125000    5.864882    -0.224755
21.187500    5.850772    -0.225766
21.250000    5.836598    -0.226782
21.312500    5.822360    -0.227803
21.375000    5.808058    -0.228829
21.437500    5.793692    -0.229860
21.500000    5.779261    -0.230896
21.562500    5.764765    -0.231937
21.625000    5.750204    -0.232983
21.687500    5.735577    -0.234035
21.750000    5.720883    -0.235091
21.812500    5.706124    -0.236154
21.875000    5.691298    -0.237221
21.937500    5.676404    -0.238295
22.000000    5.661443    -0.239374
22.062500    5.646415    -0.240458
22.125000    5.631318    -0.241548
22.187500    5.616153    -0.242644
22.250000    5.600919    -0.243746
22.312500    5.585615    -0.244854
22.375000    5.570242    -0.245968
22.437500    5.554799    -0.247088
22.500000    5.539286    -0.248215
22.562500    5.523702    -0.249347
22.625000    5.508046    -0.250486
22.687500    5.492319    -0.251631
22.750000    5.476520    -0.252783
22.812500    5.460649    -0.253942
22.875000    5.444705    -0.255107
22.937500    5.428687    -0.256279
23.000000    5.412596    -0.257457
23.062500    5.396431    -0.258643
23.125000    5.380191    -0.259836
23.187500    5.363877    -0.261036
23.250000    5.347486    -0.262243
23.312500    5.331020    -0.263458
23.375000    5.314478    -0.264680
23.437500    5.297859    -0.265909
23.500000    5.281162    -0.267147
23.562500    5.264388    -0.268392
23.625000    5.247535    -0.269645
23.687500    5.230603    -0.270906
23.750000    5.213593    -0.272175
23.812500    5.196502    -0.273452
23.875000    5.179331    -0.274737
23.937500    5.162079    -0.276032
24.000000    5.144745    -0.277334
24.062500    5.127330    -0.278646
24.125000    5.109832    -0.279966
24.187500    5.092251    -0.281295
24.250000    5.074586    -0.282633
24.312500    5.056838    -0.283981
24.375000    5.039004    -0.285338
24.437500    5.021085    -0.286705
24.500000    5.003080    -0.288081
24.562500    4.984988    -0.289467
24.625000    4.966809    -0.290863
24.687500    4.948543    -0.292269
24.750000    4.930187    -0.293686
24.812500    4.911743    -0.295113
24.875000    4.893209    -0.296551
24.937500    4.874584    -0.297999
25.000000    4.855867    -0.299458
25.062500    4.837059    -0.300929
25.125000    4.818159    -0.302411
25.187500    4.799165    -0.303905
25.250000    4.780077    -0.305410
25.312500    4.760893    -0.306927
25.375000    4.741615    -0.308457
25.437500    4.722240    -0.309998
25.500000    4.702768    -0.311553
25.562500    4.683198    -0.313120
25.625000    4.663529    -0.314700
25.687500    4.643761    -0.316293
25.750000    4.623892    -0.317900
25.812500    4.603922    -0.319520
25.875000    4.583850    -0.321155
25.937500    4.563675    -0.322803
26.000000    4.543396    -0.324467
26.062500    4.523013    -0.326144
26.125000    4.502523    -0.327837
26.187500    4.481926    -0.329545
26.250000    4.461222    -0.331269
26.312500    4.440409    -0.333009
26.375000    4.419487    -0.334765
26.437500    4.398453    -0.336537
26.500000    4.377307    -0.338326
26.562500    4.356049    -0.340132
26.625000    4.334677    -0.341956
26.687500    4.313190    -0.343798
26.750000    4.291586    -0.345657
26.812500    4.269865    -0.347536
26.875000    4.248025    -0.349433
26.937500    4.226066    -0.351350
27.000000    4.203986    -0.353286
27.062500    4.181783    -0.355243
27.125000    4.159457    -0.357220
27.187500    4.137005    -0.359219
27.250000    4.114428    -0.361238
27.312500    4.091723    -0.363280
27.375000    4.068889    -0.365345
27.437500    4.045925    -0.367432
27.500000    4.022828    -0.369542
27.562500    3.999598    -0.371677
27.625000    3.976233    -0.373837
27.687500    3.952732    -0.376021
27.750000    3.929093    -0.378231
27.812500    3.905313    -0.380468
27.875000    3.881393    -0.382732
27.937500    3.857329    -0.385023
28.000000    3.833120    -0.387342
28.062500    3.808764    -0.389691
28.125000    3.784260    -0.392069
28.187500    3.759605    -0.394478
28.250000    3.734798    -0.396918
28.312500    3.709836    -0.399391
28.375000    3.684717    -0.401896
28.437500    3.659440    -0.404435
28.500000    3.634002    -0.407009
28.562500    3.608401    -0.409618
28.625000    3.582634    -0.412265
28.687500    3.556700    -0.414948
28.750000    3.530596    -0.417671
28.812500    3.504318    -0.420433
28.875000    3.477866    -0.423237
28.937500    3.451236    -0.426082
29.000000    3.424425    -0.428971
29.062500    3.397431    -0.431905
29.125000    3.370251    -0.434885
29.187500    3.342881    -0.437913
29.250000    3.315320    -0.440989
29.312500    3.287562    -0.444116
29.375000    3.259606    -0.447296
29.437500    3.231448    -0.450529
29.500000    3.203085    -0.453818
29.562500    3.174512    -0.457164
29.625000    3.145726    -0.460570
29.687500    3.116724    -0.464038
29.750000    3.087501    -0.467569
29.812500    3.058053    -0.471167
29.875000    3.028376    -0.474833
29.937500    2.998465    -0.478569
30.000000    2.968316    -0.482380
30.062500    2.937925    -0.486266
30.125000    2.907285    -0.490232
30.187500    2.876392    -0.494281
30.250000    2.845241    -0.498415
30.312500    2.813826    -0.502639
30.375000    2.782142    -0.506956
30.437500    2.750181    -0.511369
30.500000    2.717938    -0.515884
30.562500    2.685407    -0.520504
30.625000    2.652580    -0.525235
30.687500    2.619450    -0.530080
30.750000    2.586010    -0.535047
30.812500    2.552251    -0.540140
30.875000    2.518166    -0.545365
30.937500    2.483745    -0.550730
31.000000    2.448980    -0.556241
31.062500    2.413861    -0.561905
31.125000    2.378377    -0.567732
31.187500    2.342519    -0.573729
31.250000    2.306275    -0.579907
31.312500    2.269633    -0.586275
31.375000    2.232580    -0.592845
31.437500    2.195103    -0.599629
31.500000    2.157188    -0.606640
31.562500    2.118820    -0.613892
31.625000    2.079982    -0.621402
31.687500    2.040658    -0.629185
31.750000    2.000829    -0.637263
31.812500    2.041183    0.645654
31.875000    2.080990    0.636925
31.937500    2.120274    0.628538
32.000000    2.159053    0.620469
32.062500    2.197347    0.612695
32.125000    2.235172    0.605199
32.187500    2.272544    0.597961
32.250000    2.309479    0.590967
32.312500    2.345992    0.584200
32.375000    2.382095    0.577649
32.437500    2.417801    0.571299
32.500000    2.453123    0.565141
32.562500    2.488070    0.559163
32.625000    2.522655    0.553356
32.687500    2.556887    0.547711
32.750000    2.590776    0.542220
32.812500    2.624331    0.536875
32.875000    2.657560    0.531669
32.937500    2.690472    0.526595
33.000000    2.723075    0.521647
33.062500    2.755376    0.516819
33.125000    2.787383    0.512107
33.187500    2.819102    0.507504
33.250000    2.850540    0.503006
33.312500    2.881703    0.498609
33.375000    2.912597    0.494308
33.437500    2.943228    0.490100
33.500000    2.973602    0.485981
33.562500    3.003724    0.481947
33.625000    3.033599    0.477995
33.687500    3.063231    0.474122
33.750000    3.092627    0.470325
33.812500    3.121789    0.466600
33.875000    3.150724    0.462947
33.937500    3.179434    0.459361
34.000000    3.207924    0.455841
34.062500    3.236198    0.452384
34.125000    3.264260    0.448988
34.187500    3.292113    0.445652
34.250000    3.319761    0.442372
34.312500    3.347208    0.439148
34.375000    3.374457    0.435977
34.437500    3.401510    0.432858
34.500000    3.428372    0.429789
34.562500    3.455045    0.426769
34.625000    3.481532    0.423796
34.687500    3.507837    0.420868
34.750000    3.533961    0.417985
34.812500    3.559907    0.415145
