# This is the run log of Verify
# Experiment type: SPRINGER (6)
# Time step used = 0.004
# Columns are (values in code units):
# [t]    [x]    [v]

0.004000    10.000000    0.000000
0.008000    9.999840    -0.040000
0.012000    9.999519    -0.080000
0.016000    9.999040    -0.119999
0.020000    9.998400    -0.159997
0.024000    9.997600    -0.199994
0.028000    9.996639    -0.239987
0.032000    9.995520    -0.279978
0.036000    9.994240    -0.319964
0.040000    9.992800    -0.359946
0.044000    9.991200    -0.399923
0.048000    9.989441    -0.439894
0.052000    9.987521    -0.479859
0.056000    9.985442    -0.519817
0.060000    9.983203    -0.559767
0.064000    9.980804    -0.599709
0.068000    9.978246    -0.639642
0.072000    9.975528    -0.679565
0.076000    9.972650    -0.719478
0.080000    9.969612    -0.759380
0.084000    9.966415    -0.799271
0.088000    9.963058    -0.839149
0.092000    9.959542    -0.879015
0.096000    9.955867    -0.918867
0.100000    9.952032    -0.958705
0.104000    9.948038    -0.998529
0.108000    9.943885    -1.038337
0.112000    9.939572    -1.078129
0.116000    9.935101    -1.117904
0.120000    9.930470    -1.157663
0.124000    9.925680    -1.197403
0.128000    9.920732    -1.237125
0.132000    9.915625    -1.276828
0.136000    9.910358    -1.316511
0.140000    9.904934    -1.356173
0.144000    9.899351    -1.395815
0.148000    9.893609    -1.435434
0.152000    9.887709    -1.475032
0.156000    9.881650    -1.514606
0.160000    9.875433    -1.554157
0.164000    9.869059    -1.593683
0.168000    9.862526    -1.633185
0.172000    9.855835    -1.672661
0.176000    9.848987    -1.712111
0.180000    9.841981    -1.751535
0.184000    9.834817    -1.790931
0.188000    9.827496    -1.830299
0.192000    9.820017    -1.869638
0.196000    9.812381    -1.908948
0.200000    9.804588    -1.948228
0.204000    9.796638    -1.987478
0.208000    9.788531    -2.026696
0.212000    9.780268    -2.065882
0.216000    9.771848    -2.105036
0.220000    9.763271    -2.144158
0.224000    9.754539    -2.183245
0.228000    9.745649    -2.222298
0.232000    9.736604    -2.261316
0.236000    9.727403    -2.300299
0.240000    9.718045    -2.339245
0.244000    9.708532    -2.378155
0.248000    9.698864    -2.417027
0.252000    9.689040    -2.455861
0.256000    9.679062    -2.494657
0.260000    9.668928    -2.533413
0.264000    9.658640    -2.572129
0.268000    9.648196    -2.610805
0.272000    9.637598    -2.649440
0.276000    9.626846    -2.688032
0.280000    9.615940    -2.726583
0.284000    9.604879    -2.765090
0.288000    9.593665    -2.803554
0.292000    9.582297    -2.841974
0.296000    9.570776    -2.880348
0.300000    9.559101    -2.918677
0.304000    9.547274    -2.956960
0.308000    9.535293    -2.995197
0.312000    9.523159    -3.033386
0.316000    9.510873    -3.071527
0.320000    9.498434    -3.109620
0.324000    9.485844    -3.147663
0.328000    9.473101    -3.185657
0.332000    9.460206    -3.223600
0.336000    9.447160    -3.261493
0.340000    9.433963    -3.299334
0.344000    9.420614    -3.337122
0.348000    9.407115    -3.374858
0.352000    9.393465    -3.412541
0.356000    9.379664    -3.450169
0.360000    9.365713    -3.487743
0.364000    9.351612    -3.525262
0.368000    9.337361    -3.562725
0.372000    9.322961    -3.600131
0.376000    9.308411    -3.637480
0.380000    9.293712    -3.674772
0.384000    9.278864    -3.712006
0.388000    9.263867    -3.749181
0.392000    9.248722    -3.786296
0.396000    9.233429    -3.823352
0.400000    9.217988    -3.860347
0.404000    9.202399    -3.897280
0.408000    9.186663    -3.934152
0.412000    9.170779    -3.970962
0.416000    9.154748    -4.007709
0.420000    9.138571    -4.044392
0.424000    9.122247    -4.081011
0.428000    9.105777    -4.117565
0.432000    9.089161    -4.154054
0.436000    9.072399    -4.190477
0.440000    9.055491    -4.226834
0.444000    9.038439    -4.263124
0.448000    9.021241    -4.299345
0.452000    9.003900    -4.335499
0.456000    8.986413    -4.371584
0.460000    8.968782    -4.407600
0.464000    8.951008    -4.443545
0.468000    8.933090    -4.479421
0.472000    8.915030    -4.515224
0.476000    8.896826    -4.550957
0.480000    8.878479    -4.586617
0.484000    8.859990    -4.622204
0.488000    8.841359    -4.657718
0.492000    8.822586    -4.693158
0.496000    8.803672    -4.728524
0.500000    8.784616    -4.763814
0.504000    8.765420    -4.799029
0.508000    8.746083    -4.834167
0.512000    8.726606    -4.869229
0.516000    8.706989    -4.904213
0.520000    8.687233    -4.939120
0.524000    8.667337    -4.973948
0.528000    8.647303    -5.008697
0.532000    8.627130    -5.043366
0.536000    8.606818    -5.077956
0.540000    8.586369    -5.112464
0.544000    8.565781    -5.146892
0.548000    8.545055    -5.181237
0.552000    8.524194    -5.215500
0.556000    8.503195    -5.249681
0.560000    8.482059    -5.283777
0.564000    8.460789    -5.317790
0.568000    8.439382    -5.351718
0.572000    8.417839    -5.385561
0.576000    8.396162    -5.419319
0.580000    8.374350    -5.452991
0.584000    8.352404    -5.486575
0.588000    8.330323    -5.520072
0.592000    8.308109    -5.553482
0.596000    8.285762    -5.586803
0.600001    8.263282    -5.620036
0.604001    8.240669    -5.653179
0.608001    8.217924    -5.686232
0.612001    8.195047    -5.719194
0.616001    8.172039    -5.752066
0.620001    8.148900    -5.784846
0.624001    8.125629    -5.817534
0.628001    8.102229    -5.850130
0.632001    8.078698    -5.882633
0.636001    8.055038    -5.915041
0.640001    8.031249    -5.947356
0.644001    8.007331    -5.979577
0.648001    7.983284    -6.011702
0.652001    7.959109    -6.043731
0.656001    7.934807    -6.075664
0.660001    7.910377    -6.107501
0.664001    7.885820    -6.139240
0.668001    7.861136    -6.170881
0.672001    7.836327    -6.202425
0.676001    7.811391    -6.233869
0.680001    7.786331    -6.265214
0.684001    7.761145    -6.296460
0.688001    7.735834    -6.327605
0.692001    7.710400    -6.358650
0.696001    7.684841    -6.389593
0.700001    7.659159    -6.420435
0.704001    7.633355    -6.451174
0.708001    7.607428    -6.481811
0.712001    7.581378    -6.512344
0.716001    7.555207    -6.542774
0.720001    7.528914    -6.573100
0.724001    7.502501    -6.603321
0.728001    7.475967    -6.633436
0.732001    7.449314    -6.663446
0.736001    7.422540    -6.693350
0.740001    7.395648    -6.723147
0.744001    7.368636    -6.752838
0.748001    7.341506    -6.782420
0.752001    7.314259    -6.811895
0.756001    7.286894    -6.841261
0.760001    7.259412    -6.870518
0.764001    7.231813    -6.899665
0.768001    7.204098    -6.928703
0.772001    7.176268    -6.957630
0.776001    7.148322    -6.986446
0.780001    7.120261    -7.015152
0.784001    7.092086    -7.043745
0.788001    7.063797    -7.072226
0.792001    7.035395    -7.100594
0.796001    7.006880    -7.128849
0.800001    6.978252    -7.156991
0.804001    6.949512    -7.185018
0.808001    6.920660    -7.212931
0.812001    6.891697    -7.240729
0.816001    6.862624    -7.268412
0.820001    6.833440    -7.295979
0.824001    6.804146    -7.323430
0.828001    6.774743    -7.350763
0.832001    6.745231    -7.377980
0.836001    6.715611    -7.405079
0.840001    6.685883    -7.432060
0.844001    6.656047    -7.458922
0.848001    6.626104    -7.485666
0.852001    6.596055    -7.512290
0.856001    6.565900    -7.538795
0.860001    6.535639    -7.565179
0.864001    6.505273    -7.591443
0.868001    6.474803    -7.617585
0.872001    6.444229    -7.643606
0.876001    6.413551    -7.669506
0.880001    6.382770    -7.695282
0.884001    6.351886    -7.720937
0.888001    6.320900    -7.746468
0.892001    6.289813    -7.771875
0.896001    6.258624    -7.797159
0.900001    6.227335    -7.822319
0.904001    6.195946    -7.847353
0.908001    6.164457    -7.872262
0.912001    6.132869    -7.897046
0.916001    6.101182    -7.921704
0.920001    6.069397    -7.946235
0.924001    6.037514    -7.970640
0.928001    6.005535    -7.994917
0.932001    5.973458    -8.019068
0.936001    5.941286    -8.043090
0.940001    5.909018    -8.066984
0.944001    5.876655    -8.090750
0.948001    5.844198    -8.114386
0.952001    5.811646    -8.137892
0.956001    5.779001    -8.161268
0.960001    5.746263    -8.184515
0.964001    5.713432    -8.207631
0.968001    5.680510    -8.230617
0.972001    5.647496    -8.253470
0.976001    5.614391    -8.276193
0.980001    5.581196    -8.298782
0.984001    5.547911    -8.321239
0.988001    5.514536    -8.343564
0.992001    5.481073    -8.365756
0.996001    5.447522    -8.387815
1.000001    5.413883    -8.409739
1.004001    5.380157    -8.431529
1.008001    5.346344    -8.453184
1.012001    5.312446    -8.474705
1.016001    5.278461    -8.496090
1.020001    5.244392    -8.517340
1.024001    5.210238    -8.538453
1.028001    5.176000    -8.559431
1.032001    5.141679    -8.580272
1.036001    5.107275    -8.600976
1.040001    5.072789    -8.621543
1.044001    5.038221    -8.641972
1.048001    5.003572    -8.662263
1.052001    4.968843    -8.682416
1.056001    4.934033    -8.702431
1.060001    4.899144    -8.722306
1.064000    4.864175    -8.742043
1.068000    4.829129    -8.761639
1.072000    4.794004    -8.781096
1.076000    4.758803    -8.800412
1.080000    4.723525    -8.819589
1.084000    4.688170    -8.838624
1.088000    4.652740    -8.857518
1.092000    4.617235    -8.876271
1.096000    4.581655    -8.894882
1.100000    4.546001    -8.913351
1.104000    4.510275    -8.931678
1.108000    4.474475    -8.949862
1.112000    4.438604    -8.967902
1.116000    4.402661    -8.985800
1.120000    4.366647    -9.003554
1.124000    4.330562    -9.021165
1.128000    4.294407    -9.038631
1.132000    4.258183    -9.055954
1.136000    4.221891    -9.073132
1.140000    4.185530    -9.090164
1.143999    4.149102    -9.107052
1.147999    4.112607    -9.123794
1.151999    4.076046    -9.140390
1.155999    4.039418    -9.156841
1.159999    4.002726    -9.173145
1.163999    3.965968    -9.189303
1.167999    3.929147    -9.205315
1.171999    3.892262    -9.221178
1.175999    3.855315    -9.236895
1.179999    3.818305    -9.252463
1.183999    3.781233    -9.267884
1.187999    3.744101    -9.283157
1.191999    3.706908    -9.298283
1.195999    3.669654    -9.313259
1.199999    3.632342    -9.328087
1.203999    3.594971    -9.342766
1.207999    3.557542    -9.357295
1.211999    3.520055    -9.371675
1.215999    3.482512    -9.385904
1.219998    3.444911    -9.399984
1.223998    3.407256    -9.413915
1.227998    3.369545    -9.427694
1.231998    3.331780    -9.441323
1.235998    3.293961    -9.454802
1.239998    3.256088    -9.468128
1.243998    3.218163    -9.481304
1.247998    3.180186    -9.494328
1.251998    3.142157    -9.507201
1.255998    3.104077    -9.519922
1.259998    3.065947    -9.532491
1.263998    3.027768    -9.544907
1.267998    2.989539    -9.557171
1.271998    2.951262    -9.569282
1.275998    2.912937    -9.581240
1.279998    2.874564    -9.593044
1.283998    2.836146    -9.604696
1.287998    2.797681    -9.616195
1.291998    2.759171    -9.627540
1.295998    2.720616    -9.638730
1.299997    2.682017    -9.649767
1.303997    2.643374    -9.660649
1.307997    2.604689    -9.671377
1.311997    2.565961    -9.681951
1.315997    2.527191    -9.692369
1.319997    2.488381    -9.702633
1.323997    2.449530    -9.712742
1.327997    2.410639    -9.722695
1.331997    2.371709    -9.732493
1.335997    2.332741    -9.742136
1.339997    2.293734    -9.751623
1.343997    2.254690    -9.760954
1.347997    2.215610    -9.770129
1.351997    2.176493    -9.779148
1.355997    2.137341    -9.788011
1.359997    2.098154    -9.796717
1.363997    2.058933    -9.805266
1.367997    2.019678    -9.813659
1.371997    1.980391    -9.821895
1.375996    1.941071    -9.829973
1.379996    1.901719    -9.837894
1.383996    1.862336    -9.845658
1.387996    1.822923    -9.853265
1.391996    1.783480    -9.860714
1.395996    1.744008    -9.868006
1.399996    1.704508    -9.875139
1.403996    1.664979    -9.882115
1.407996    1.625424    -9.888933
1.411996    1.585841    -9.895593
1.415996    1.546233    -9.902095
1.419996    1.506599    -9.908439
1.423996    1.466941    -9.914623
1.427996    1.427258    -9.920650
1.431996    1.387552    -9.926517
1.435996    1.347823    -9.932226
1.439996    1.308072    -9.937777
1.443996    1.268299    -9.943168
1.447996    1.228506    -9.948400
1.451995    1.188692    -9.953473
1.455995    1.148858    -9.958387
1.459995    1.109006    -9.963142
1.463995    1.069135    -9.967738
1.467995    1.029246    -9.972175
1.471995    0.989340    -9.976451
1.475995    0.949418    -9.980568
1.479995    0.909480    -9.984526
1.483995    0.869526    -9.988323
1.487995    0.829559    -9.991961
1.491995    0.789577    -9.995440
1.495995    0.749582    -9.998757
1.499995    0.709574    -10.001916
1.503995    0.669554    -10.004914
1.507995    0.629523    -10.007752
1.511995    0.589482    -10.010430
1.515995    0.549430    -10.012948
1.519995    0.509369    -10.015306
1.523995    0.469299    -10.017503
1.527995    0.429220    -10.019540
1.531994    0.389135    -10.021417
1.535994    0.349042    -10.023133
1.539994    0.308944    -10.024690
1.543994    0.268839    -10.026086
1.547994    0.228730    -10.027322
1.551994    0.188616    -10.028398
1.555994    0.148499    -10.029312
1.559994    0.108379    -10.030066
1.563994    0.068256    -10.030661
1.567994    0.028132    -10.031095
1.571994    -0.011994    -10.031367
1.575994    -0.052120    -10.031480
1.579994    -0.092245    -10.031432
1.583994    -0.132370    -10.031223
1.587994    -0.172494    -10.030854
1.591994    -0.212615    -10.030325
1.595994    -0.252734    -10.029635
1.599994    -0.292849    -10.028785
1.603994    -0.332960    -10.027774
1.607993    -0.373066    -10.026603
1.611993    -0.413167    -10.025270
1.615993    -0.453262    -10.023778
1.619993    -0.493351    -10.022125
1.623993    -0.533432    -10.020312
1.627993    -0.573505    -10.018339
1.631993    -0.613570    -10.016206
1.635993    -0.653626    -10.013912
1.639993    -0.693672    -10.011457
1.643993    -0.733707    -10.008842
1.647993    -0.773731    -10.006068
1.651993    -0.813744    -10.003134
1.655993    -0.853744    -10.000039
1.659993    -0.893731    -9.996784
1.663993    -0.933705    -9.993369
1.667993    -0.973664    -9.989794
1.671993    -1.013608    -9.986059
1.675993    -1.053537    -9.982164
1.679993    -1.093449    -9.978110
1.683993    -1.133345    -9.973896
1.687992    -1.173223    -9.969522
1.691992    -1.213083    -9.964989
1.695992    -1.252924    -9.960296
1.699992    -1.292746    -9.955443
1.703992    -1.332548    -9.950432
1.707992    -1.372329    -9.945261
1.711992    -1.412089    -9.939931
1.715992    -1.451826    -9.934442
1.719992    -1.491542    -9.928793
1.723992    -1.531233    -9.922986
1.727992    -1.570902    -9.917020
1.731992    -1.610545    -9.910895
1.735992    -1.650164    -9.904612
1.739992    -1.689756    -9.898170
1.743992    -1.729322    -9.891569
1.747992    -1.768862    -9.884810
1.751992    -1.808373    -9.877893
1.755992    -1.847857    -9.870818
1.759992    -1.887311    -9.863585
1.763991    -1.926736    -9.856194
1.767991    -1.966130    -9.848644
1.771991    -2.005494    -9.840938
1.775991    -2.044827    -9.833073
1.779991    -2.084127    -9.825050
1.783991    -2.123394    -9.816871
1.787991    -2.162628    -9.808535
1.791991    -2.201828    -9.800041
1.795991    -2.240994    -9.791390
1.799991    -2.280124    -9.782583
1.803991    -2.319219    -9.773620
1.807991    -2.358277    -9.764499
1.811991    -2.397298    -9.755221
1.815991    -2.436281    -9.745789
1.819991    -2.475225    -9.736199
1.823991    -2.514131    -9.726454
1.827991    -2.552998    -9.716553
1.831991    -2.591824    -9.706496
1.835991    -2.630609    -9.696284
1.839990    -2.669353    -9.685917
1.843990    -2.708054    -9.675394
1.847990    -2.746713    -9.664717
1.851990    -2.785328    -9.653885
1.855990    -2.823900    -9.642898
1.859990    -2.862427    -9.631756
1.863990    -2.900909    -9.620461
1.867990    -2.939345    -9.609011
1.871990    -2.977735    -9.597407
1.875990    -3.016077    -9.585649
1.879990    -3.054372    -9.573738
1.883990    -3.092619    -9.561674
1.887990    -3.130817    -9.549457
1.891990    -3.168965    -9.537086
1.895990    -3.207063    -9.524563
1.899990    -3.245111    -9.511887
1.903990    -3.283107    -9.499059
1.907990    -3.321052    -9.486078
1.911990    -3.358943    -9.472946
1.915990    -3.396782    -9.459661
1.919989    -3.434567    -9.446226
1.923989    -3.472297    -9.432639
1.927989    -3.509973    -9.418900
1.931989    -3.547593    -9.405011
1.935989    -3.585157    -9.390971
1.939989    -3.622664    -9.376781
1.943989    -3.660114    -9.362440
1.947989    -3.697506    -9.347949
1.951989    -3.734839    -9.333308
1.955989    -3.772113    -9.318519
1.959989    -3.809327    -9.303579
1.963989    -3.846481    -9.288491
1.967989    -3.883574    -9.273254
1.971989    -3.920606    -9.257869
1.975989    -3.957575    -9.242334
1.979989    -3.994482    -9.226652
1.983989    -4.031325    -9.210822
1.987989    -4.068104    -9.194844
1.991989    -4.104819    -9.178719
1.995988    -4.141469    -9.162446
1.999988    -4.178053    -9.146027
2.003989    -4.214571    -9.129460
2.007988    -4.251021    -9.112748
2.011988    -4.287405    -9.095890
2.015988    -4.323720    -9.078886
2.019988    -4.359967    -9.061736
2.023988    -4.396145    -9.044441
2.027988    -4.432253    -9.027001
2.031988    -4.468290    -9.009417
2.035988    -4.504257    -8.991688
2.039988    -4.540153    -8.973815
2.043988    -4.575976    -8.955798
2.047988    -4.611726    -8.937637
2.051988    -4.647404    -8.919333
2.055988    -4.683007    -8.900887
2.059988    -4.718536    -8.882297
2.063988    -4.753991    -8.863564
2.067988    -4.789370    -8.844690
2.071988    -4.824672    -8.825674
2.075988    -4.859898    -8.806517
2.079988    -4.895047    -8.787218
2.083987    -4.930118    -8.767778
2.087987    -4.965111    -8.748199
2.091987    -5.000025    -8.728478
2.095987    -5.034859    -8.708618
2.099987    -5.069613    -8.688618
2.103987    -5.104287    -8.668478
2.107987    -5.138880    -8.648199
2.111987    -5.173391    -8.627782
2.115987    -5.207820    -8.607226
2.119987    -5.242166    -8.586533
2.123987    -5.276429    -8.565701
2.127987    -5.310607    -8.544733
2.131987    -5.344702    -8.523627
2.135987    -5.378711    -8.502385
2.139987    -5.412635    -8.481007
2.143987    -5.446473    -8.459492
2.147987    -5.480225    -8.437841
2.151987    -5.513889    -8.416056
2.155987    -5.547465    -8.394135
2.159986    -5.580954    -8.372079
2.163986    -5.614353    -8.349889
2.167986    -5.647664    -8.327565
2.171986    -5.680884    -8.305108
2.175986    -5.714014    -8.282517
2.179986    -5.747053    -8.259794
2.183986    -5.780001    -8.236938
2.187986    -5.812857    -8.213950
2.191986    -5.845620    -8.190830
2.195986    -5.878291    -8.167579
2.199986    -5.910867    -8.144197
2.203986    -5.943350    -8.120684
2.207986    -5.975738    -8.097040
2.211986    -6.008031    -8.073267
2.215986    -6.040228    -8.049364
2.219986    -6.072330    -8.025331
2.223986    -6.104334    -8.001170
2.227986    -6.136242    -7.976881
2.231986    -6.168052    -7.952464
2.235986    -6.199763    -7.927918
2.239985    -6.231376    -7.903246
2.243985    -6.262890    -7.878448
